ENVI ASCII Plot File [Fri Jul 15 13:55:41 2016]
Column 1: Wavelength
Column 2: Mean: concrete 1~~2##255,0,0
Column 3: Mean: concrete 2~~22##0,139,0
Column 4: Mean: grass 1~~4##0,0,255
   365.929810   287.222222   281.000000     0.000000
   375.593994   398.444444   382.888889     0.000000
   385.262512   728.777778   715.777778   176.333333
   394.935486   925.555556   901.555556   293.888889
   404.612915   979.666667   946.666667   317.777778
   414.294586  1017.777778   986.111111   339.777778
   423.980804  1058.333333  1009.777778   364.333333
   433.671295  1111.777778  1065.888889   393.222222
   443.366211  1155.000000  1105.111111   408.666667
   453.065491  1199.444444  1143.333333   421.000000
   462.769196  1240.666667  1180.555556   441.888889
   472.477295  1270.111111  1203.888889   442.666667
   482.189789  1299.333333  1232.111111   452.777778
   491.906586  1339.888889  1267.000000   471.333333
   501.627899  1377.888889  1294.333333   521.888889
   511.353485  1425.444444  1336.111111   591.555556
   521.083618  1490.111111  1382.666667   695.666667
   530.817993  1544.000000  1420.777778   762.777778
   540.556824  1611.111111  1473.555556   844.666667
   550.299988  1671.666667  1517.333333   887.444444
   560.047729  1723.222222  1559.555556   900.000000
   569.799622  1773.222222  1592.777778   881.666667
   579.556030  1803.888889  1623.888889   853.222222
   589.316772  1879.111111  1693.222222   878.222222
   599.081909  1887.555556  1697.000000   867.000000
   608.851501  1879.777778  1690.555556   837.000000
   618.625427  1896.333333  1704.555556   821.666667
   628.403687  1912.555556  1721.555556   825.000000
   638.186523  1927.666667  1741.888889   826.888889
   647.973572  1965.000000  1774.555556   820.222222
   657.765076  1964.888889  1779.777778   780.888889
   667.560974  1951.777778  1770.888889   726.444444
   655.792297  1970.777778  1781.888889   790.666667
   665.599426  1949.000000  1768.444444   723.000000
   675.401184  1950.111111  1771.000000   699.222222
   685.197876  1950.555556  1769.555556   764.444444
   694.989380  2030.222222  1846.666667  1063.222222
   704.775574  2077.777778  1883.555556  1458.555556
   714.556580  2104.777778  1902.555556  1841.111111
   724.332520  2209.111111  1996.444444  2340.333333
   734.103088  2235.111111  2011.888889  2639.000000
   743.868530  2213.444444  1987.777778  2751.444444
   753.628723  2212.333333  1988.666667  2824.222222
   763.383728  2236.888889  2009.777778  2894.555556
   773.133484  2277.777778  2047.444444  2972.777778
   782.878113  2275.444444  2047.111111  2985.111111
   792.617371  2295.333333  2063.111111  3036.333333
   802.351624  2300.444444  2069.888889  3059.888889
   812.080505  2342.555556  2106.000000  3142.555556
   821.804321  2308.333333  2080.222222  3129.222222
   831.522827  2298.111111  2074.777778  3120.222222
   841.236084  2293.111111  2073.000000  3109.666667
   850.944214  2304.888889  2089.111111  3132.555556
   860.647095  2313.666667  2097.555556  3158.444444
   870.344788  2319.000000  2109.444444  3181.444444
   880.037170  2317.222222  2105.111111  3194.111111
   889.724487  2350.222222  2142.666667  3256.222222
   899.406616  2399.888889  2186.333333  3371.333333
   909.083374  2386.555556  2179.666667  3374.333333
   918.755127  2316.444444  2117.888889  3279.444444
   928.421387  2535.222222  2311.444444  3604.000000
   938.082703  2614.333333  2399.888889  3820.666667
   947.738708  2369.222222  2170.777778  3289.222222
   957.389526  2588.222222  2384.333333  3447.000000
   967.035095  2547.000000  2345.111111  3269.444444
   976.675476  2446.222222  2257.222222  3115.666667
   986.310608  2426.555556  2242.666667  3080.555556
   995.940613  2353.666667  2172.000000  3007.444444
  1005.565002  2371.333333  2187.555556  3069.222222
  1015.184998  2381.888889  2200.333333  3127.666667
  1024.798950  2395.777778  2206.333333  3192.222222
  1034.407959  2400.222222  2216.111111  3245.777778
  1044.011963  2408.444444  2220.333333  3290.777778
  1053.610962  2407.111111  2222.000000  3316.666667
  1063.203979  2418.444444  2228.444444  3337.222222
  1072.792969  2431.555556  2239.888889  3373.666667
  1082.375977  2421.222222  2233.888889  3356.777778
  1091.953979  2450.888889  2266.000000  3397.777778
  1101.526001  2499.444444  2304.666667  3478.111111
  1111.093994  2497.000000  2298.666667  3504.888889
  1120.656006  2338.000000  2161.444444  3396.555556
  1130.213013  2275.888889  2105.555556  3180.444444
  1139.765015  2279.888889  2095.888889  2966.888889
  1149.311035  2492.333333  2306.222222  3011.222222
  1158.853027  2648.000000  2455.333333  3000.111111
  1168.389038  2592.444444  2400.777778  2827.444444
  1177.920044  2508.666667  2330.000000  2698.000000
  1187.446045  2492.444444  2316.111111  2664.222222
  1196.965942  2510.555556  2332.777778  2664.555556
  1206.482056  2505.111111  2330.333333  2651.111111
  1215.991943  2530.777778  2355.666667  2682.333333
  1225.496948  2525.222222  2343.888889  2683.444444
  1234.995972  2515.111111  2336.444444  2684.000000
  1244.490967  2508.444444  2329.444444  2692.111111
  1253.979980  2502.111111  2324.111111  2698.444444
  1263.463989  2475.777778  2300.444444  2671.111111
  1253.373047  2501.000000  2322.888889  2693.777778
  1263.345947  2500.666667  2335.222222  2719.777778
  1273.317993  2521.666667  2315.000000  2744.000000
  1283.291016  2543.555556  2343.666667  2771.777778
  1293.261963  2581.666667  2374.666667  2801.444444
  1303.234009  2621.555556  2392.333333  2754.222222
  1313.206055  2592.444444  2368.444444  2664.333333
  1323.177002     0.000000     0.000000     0.000000
  1333.147949     0.000000     0.000000     0.000000
  1343.119019     0.000000     0.000000     0.000000
  1353.088989     0.000000     0.000000     0.000000
  1363.060059     0.000000     0.000000     0.000000
  1373.030029     0.000000     0.000000     0.000000
  1383.000000     0.000000     0.000000     0.000000
  1392.968994     0.000000     0.000000     0.000000
  1402.938965     0.000000     0.000000     0.000000
  1412.907959     0.000000     0.000000     0.000000
  1422.876953     0.000000     0.000000     0.000000
  1432.844971  2469.111111  2324.111111  1086.333333
  1442.813965  2344.333333  2113.555556  1028.444444
  1452.781982  2293.888889  2091.333333   986.666667
  1462.750000  2478.333333  2348.555556  1085.777778
  1472.718018  2414.333333  2235.777778  1027.000000
  1482.685059  2555.333333  2359.666667  1113.222222
  1492.651978  2611.666667  2417.333333  1132.555556
  1502.619019  2594.888889  2404.555556  1132.444444
  1512.586060  2606.888889  2411.777778  1182.888889
  1522.552002  2593.555556  2403.777778  1223.000000
  1532.517944  2588.666667  2398.777778  1249.222222
  1542.484009  2600.666667  2410.888889  1310.222222
  1552.449951  2616.444444  2424.111111  1358.444444
  1562.416016  2630.555556  2442.222222  1410.111111
  1572.380981  2628.888889  2434.000000  1438.444444
  1582.345947  2640.444444  2443.111111  1491.333333
  1592.311035  2658.111111  2460.000000  1544.333333
  1602.275024  2673.333333  2469.888889  1586.777778
  1612.239990  2681.444444  2469.888889  1625.222222
  1622.203979  2691.888889  2482.666667  1671.888889
  1632.166992  2699.000000  2480.888889  1700.444444
  1642.130981  2706.777778  2491.777778  1730.222222
  1652.093994  2703.666667  2492.222222  1750.000000
  1662.057007  2710.777778  2489.111111  1757.444444
  1672.020020  2706.000000  2499.888889  1760.777778
  1681.983032  2707.000000  2504.444444  1755.444444
  1691.944946  2698.777778  2488.222222  1739.444444
  1701.906982  2698.333333  2488.666667  1726.222222
  1711.869019  2678.666667  2470.777778  1687.888889
  1721.831055  2690.222222  2473.000000  1664.222222
  1731.791992  2692.888889  2477.222222  1638.000000
  1741.753052  2684.111111  2488.444444  1628.111111
  1751.713989  2687.888889  2472.333333  1589.555556
  1761.675049  2716.333333  2496.555556  1574.000000
  1771.635010  2768.333333  2561.333333  1591.777778
  1781.595947  2798.444444  2563.000000  1607.555556
  1791.556030  2875.444444  2643.000000  1659.000000
  1801.515015  2872.222222  2595.666667  1622.000000
  1811.474976     0.000000     0.000000     0.000000
  1821.433960     0.000000     0.000000     0.000000
  1831.392944     0.000000     0.000000     0.000000
  1841.352051     0.000000     0.000000     0.000000
  1851.310059     0.000000     0.000000     0.000000
  1861.269043     0.000000     0.000000     0.000000
  1871.227051     0.000000     0.000000     0.000000
  1872.384033     0.000000     0.000000     0.000000
  1866.864014     0.000000     0.000000     0.000000
  1876.925049     0.000000     0.000000     0.000000
  1886.984985     0.000000     0.000000     0.000000
  1897.041992     0.000000     0.000000     0.000000
  1907.095947     0.000000     0.000000     0.000000
  1917.147949     0.000000     0.000000     0.000000
  1927.197998     0.000000     0.000000     0.000000
  1937.245972     0.000000     0.000000     0.000000
  1947.291992  1254.777778  1145.111111   372.777778
  1957.334961  1499.666667  1360.333333   287.444444
  1967.375000  2313.888889  2121.444444   317.888889
  1977.413940  2490.333333  2318.555556   428.333333
  1987.449951  2459.444444  2295.777778   510.555556
  1997.484009  2200.666667  2058.555556   357.222222
  2007.515015  1954.555556  1774.777778   322.111111
  2017.545044  2571.333333  2398.333333   365.222222
  2027.572021  2729.777778  2557.444444   671.222222
  2037.595947  2651.666667  2468.333333   700.555556
  2047.619019  2566.111111  2397.666667   641.000000
  2057.638916  2634.555556  2477.666667   555.333333
  2067.656006  2687.777778  2495.444444   624.666667
  2077.672119  2704.666667  2540.111111   717.000000
  2087.685059  2656.666667  2501.555556   740.000000
  2097.696045  2676.000000  2512.333333   778.111111
  2107.704102  2630.222222  2469.666667   771.444444
  2117.709961  2635.666667  2493.444444   816.888889
  2127.714111  2645.000000  2478.000000   821.777778
  2137.716064  2621.555556  2461.777778   843.000000
  2147.715088  2611.000000  2449.444444   865.666667
  2157.711914  2623.333333  2454.000000   883.333333
  2167.707031  2600.666667  2431.333333   876.777778
  2177.698975  2578.888889  2408.777778   921.444444
  2187.688965  2561.222222  2430.000000   929.333333
  2197.677002  2513.888889  2372.444444   951.666667
  2207.662109  2487.222222  2361.111111   945.888889
  2217.645020  2444.333333  2320.777778   946.000000
  2227.625977  2414.888889  2286.666667   921.000000
  2237.604004  2394.000000  2259.000000   900.222222
  2247.581055  2351.111111  2203.111111   848.333333
  2257.553955  2302.444444  2152.222222   793.666667
  2267.525879  2236.000000  2083.444444   753.888889
  2277.495117  2218.666667  2038.000000   742.111111
  2287.461914  2149.222222  1958.777778   704.555556
  2297.427002  2086.555556  1907.222222   681.333333
  2307.388916  2158.777778  1956.000000   684.333333
  2317.349121  2111.888889  1902.666667   671.111111
  2327.306885  2149.000000  1958.888889   681.333333
  2337.261963  2115.888889  1895.111111   661.444444
  2347.216064  2085.555556  1879.888889   615.444444
  2357.166992  2177.222222  1955.000000   648.444444
  2367.114990  2120.444444  1929.222222   636.555556
  2377.061035  2156.888889  1996.777778   622.777778
  2387.004883  2134.777778  1966.333333   636.333333
  2396.947021  2061.111111  1930.666667   626.888889
  2406.885986  2086.333333  1931.444444   621.444444
  2416.822998  1992.888889  1858.000000   610.333333
  2426.758057  1964.000000  1817.000000   573.777778
  2436.689941  1844.666667  1667.666667   562.777778
  2446.620117  1651.333333  1574.777778   484.666667
  2456.548096  1571.888889  1495.555556   467.888889
  2466.472900  1437.777778  1314.888889   359.000000
  2476.395996  1532.000000  1374.222222   420.888889
  2486.316895  1362.666667  1369.111111   232.888889
  2496.236084  1195.888889  1017.111111   251.333333
